Time(s),CH1V
0.000000e+00,3.404613e-02
2.500000e-03,3.351192e-01
5.000000e-03,6.043388e-01
7.500000e-03,8.253196e-01
1.000000e-02,9.568398e-01
1.250000e-02,9.928793e-01
1.500000e-02,9.437237e-01
1.750000e-02,7.825428e-01
2.000000e-02,5.640336e-01
2.250000e-02,2.787876e-01
2.500000e-02,-3.017906e-02
2.750000e-02,-3.417769e-01
3.000000e-02,-6.171758e-01
3.250000e-02,-8.248413e-01
3.500000e-02,-9.686005e-01
3.750000e-02,-9.990187e-01
4.000000e-02,-9.424878e-01
4.250000e-02,-7.955393e-01
4.500000e-02,-5.653093e-01
4.750000e-02,-2.758773e-01
5.000000e-02,2.706946e-02
5.250000e-02,3.347604e-01
5.500000e-02,6.136277e-01
5.750000e-02,8.195789e-01
6.000000e-02,9.609062e-01
6.250000e-02,9.990985e-01
6.500000e-02,9.331590e-01
6.750000e-02,7.833799e-01
7.000000e-02,5.645917e-01
7.250000e-02,2.736847e-01
7.500000e-02,-2.922226e-02
7.750000e-02,-3.443284e-01
8.000000e-02,-6.176143e-01
8.250000e-02,-8.201370e-01
8.500000e-02,-9.646138e-01
8.750000e-02,-9.968261e-01
9.000000e-02,-9.377038e-01
9.250000e-02,-7.956190e-01
9.500000e-02,-5.660667e-01
9.750000e-02,-2.778308e-01
1.000000e-01,2.655120e-02
1.025000e-01,3.343617e-01
1.050000e-01,6.109566e-01
1.075000e-01,8.206154e-01
1.100000e-01,9.577567e-01
1.125000e-01,9.943144e-01
1.150000e-01,9.314447e-01
1.175000e-01,7.897985e-01
1.200000e-01,5.611233e-01
1.225000e-01,2.750401e-01
1.250000e-01,-2.922226e-02
1.275000e-01,-3.349198e-01
1.300000e-01,-6.107174e-01
1.325000e-01,-8.306618e-01
1.350000e-01,-9.586737e-01
1.375000e-01,-1.001490e+00
1.400000e-01,-9.453980e-01
1.425000e-01,-7.947419e-01
1.450000e-01,-5.609638e-01
1.475000e-01,-2.853656e-01
1.500000e-01,2.399973e-02
1.525000e-01,3.362354e-01
1.550000e-01,6.026644e-01
1.575000e-01,8.139577e-01
1.600000e-01,9.594311e-01
1.625000e-01,1.002288e+00
1.650000e-01,9.344347e-01
1.675000e-01,7.848151e-01
1.700000e-01,5.621598e-01
1.725000e-01,2.802228e-01
1.750000e-01,-4.018560e-02
1.775000e-01,-3.358368e-01
1.800000e-01,-6.107174e-01
1.825000e-01,-8.299043e-01
1.850000e-01,-9.578763e-01
1.875000e-01,-9.939557e-01
1.900000e-01,-9.463947e-01
1.925000e-01,-7.894397e-01
1.950000e-01,-5.667046e-01
1.975000e-01,-2.844088e-01
2.000000e-01,2.559440e-02
2.025000e-01,3.391457e-01
2.050000e-01,6.074085e-01
2.075000e-01,8.257582e-01
2.100000e-01,9.611853e-01
2.125000e-01,9.969058e-01
2.150000e-01,9.326009e-01
2.175000e-01,7.846557e-01
2.200000e-01,5.640336e-01
2.225000e-01,2.738042e-01
2.250000e-01,-3.906933e-02
2.275000e-01,-3.369132e-01
2.300000e-01,-6.165379e-01
2.325000e-01,-8.253595e-01
2.350000e-01,-9.573979e-01
2.375000e-01,-9.911650e-01
2.400000e-01,-9.384214e-01
2.425000e-01,-7.962568e-01
2.450000e-01,-5.623193e-01
2.475000e-01,-2.794653e-01
2.500000e-01,2.021240e-02
2.525000e-01,3.304946e-01
2.550000e-01,6.155812e-01
2.575000e-01,8.234459e-01
2.600000e-01,9.549661e-01
2.625000e-01,9.889324e-01
2.650000e-01,9.385809e-01
2.675000e-01,7.833002e-01
2.700000e-01,5.634754e-01
2.725000e-01,2.839304e-01
2.750000e-01,-2.946146e-02
2.775000e-01,-3.342421e-01
2.800000e-01,-6.086444e-01
2.825000e-01,-8.221303e-01
2.850000e-01,-9.588331e-01
2.875000e-01,-9.965869e-01
2.900000e-01,-9.367470e-01
2.925000e-01,-7.959380e-01
2.950000e-01,-5.640336e-01
2.975000e-01,-2.765949e-01
3.000000e-01,2.419906e-02
3.025000e-01,3.401822e-01
3.050000e-01,6.044982e-01
3.075000e-01,8.204559e-01
3.100000e-01,9.572384e-01
3.125000e-01,9.913244e-01
3.150000e-01,9.406539e-01
3.175000e-01,7.856125e-01
3.200000e-01,5.634754e-01
3.225000e-01,2.734853e-01
3.250000e-01,-2.878373e-02
3.275000e-01,-3.429330e-01
3.300000e-01,-6.074085e-01
3.325000e-01,-8.333727e-01
3.350000e-01,-9.581155e-01
3.375000e-01,-9.946334e-01
3.400000e-01,-9.460359e-01
3.425000e-01,-7.875261e-01
3.450000e-01,-5.588509e-01
3.475000e-01,-2.764354e-01
3.500000e-01,2.041173e-02
3.525000e-01,3.370328e-01
3.550000e-01,6.036610e-01
3.575000e-01,8.191403e-01
3.600000e-01,9.521754e-01
3.625000e-01,9.937962e-01
3.650000e-01,9.408134e-01
3.675000e-01,7.948616e-01
3.700000e-01,5.550635e-01
3.725000e-01,2.758375e-01
3.750000e-01,-3.970720e-02
3.775000e-01,-3.418566e-01
3.800000e-01,-6.154615e-01
3.825000e-01,-8.285488e-01
3.850000e-01,-9.614643e-01
3.875000e-01,-1.001809e+00
3.900000e-01,-9.488664e-01
3.925000e-01,-7.963366e-01
3.950000e-01,-5.688176e-01
3.975000e-01,-2.817377e-01
4.000000e-01,3.277040e-02
4.025000e-01,3.335644e-01
4.050000e-01,6.066111e-01
4.075000e-01,8.200174e-01
4.100000e-01,9.512983e-01
4.125000e-01,9.921218e-01
4.150000e-01,9.379829e-01
4.175000e-01,7.829414e-01
4.200000e-01,5.623592e-01
4.225000e-01,2.752793e-01
4.250000e-01,-2.890333e-02
4.275000e-01,-3.441689e-01
4.300000e-01,-6.097606e-01
4.325000e-01,-8.296252e-01
4.350000e-01,-9.573581e-01
4.375000e-01,-9.957895e-01
4.400000e-01,-9.464744e-01
4.425000e-01,-7.874862e-01
4.450000e-01,-5.598077e-01
4.475000e-01,-2.794653e-01
4.500000e-01,2.766746e-02
4.525000e-01,3.374713e-01
4.550000e-01,6.153021e-01
4.575000e-01,8.262366e-01
4.600000e-01,9.532518e-01
4.625000e-01,9.904873e-01
4.650000e-01,9.412519e-01
4.675000e-01,7.834198e-01
4.700000e-01,5.546250e-01
4.725000e-01,2.805816e-01
4.750000e-01,-3.556106e-02
4.775000e-01,-3.430925e-01
4.800000e-01,-6.081261e-01
4.825000e-01,-8.310605e-01
4.850000e-01,-9.622617e-01
4.875000e-01,-1.005397e+00
4.900000e-01,-9.375045e-01
4.925000e-01,-7.879646e-01
4.950000e-01,-5.566582e-01
4.975000e-01,-2.869602e-01
5.000000e-01,2.407946e-02
5.025000e-01,3.334846e-01
5.050000e-01,6.048570e-01
5.075000e-01,8.241636e-01
5.100000e-01,9.549262e-01
5.125000e-01,9.977031e-01
5.150000e-01,9.399363e-01
5.175000e-01,7.888815e-01
5.200000e-01,5.594489e-01
5.225000e-01,2.803025e-01
5.250000e-01,-3.105613e-02
5.275000e-01,-3.460028e-01
5.300000e-01,-6.172157e-01
5.325000e-01,-8.222101e-01
5.350000e-01,-9.624610e-01
5.375000e-01,-1.002886e+00
5.400000e-01,-9.472718e-01
5.425000e-01,-7.968150e-01
5.450000e-01,-5.635153e-01
5.475000e-01,-2.782294e-01
5.500000e-01,2.364093e-02
5.525000e-01,3.398633e-01
5.550000e-01,6.048969e-01
5.575000e-01,8.248014e-01
5.600000e-01,9.621819e-01
5.625000e-01,9.935171e-01
5.650000e-01,9.349928e-01
5.675000e-01,7.830212e-01
5.700000e-01,5.639538e-01
5.725000e-01,2.797444e-01
5.750000e-01,-3.029866e-02
5.775000e-01,-3.420161e-01
5.800000e-01,-6.098802e-01
5.825000e-01,-8.236453e-01
5.850000e-01,-9.630989e-01
5.875000e-01,-1.003603e+00
5.900000e-01,-9.402553e-01
5.925000e-01,-7.866889e-01
5.950000e-01,-5.675418e-01
5.975000e-01,-2.888739e-01
6.000000e-01,2.750800e-02
6.025000e-01,3.359564e-01
6.050000e-01,6.047374e-01
6.075000e-01,8.220506e-01
6.100000e-01,9.602284e-01
6.125000e-01,9.936367e-01
6.150000e-01,9.349928e-01
6.175000e-01,7.849746e-01
6.200000e-01,5.625585e-01
6.225000e-01,2.824553e-01
6.250000e-01,-3.312920e-02
6.275000e-01,-3.362354e-01
6.300000e-01,-6.151028e-01
6.325000e-01,-8.319774e-01
6.350000e-01,-9.654111e-01
6.375000e-01,-1.003085e+00
6.400000e-01,-9.371457e-01
6.425000e-01,-7.882835e-01
6.450000e-01,-5.636747e-01
6.475000e-01,-2.873988e-01
6.500000e-01,2.523560e-02
6.525000e-01,3.414978e-01
6.550000e-01,6.134682e-01
6.575000e-01,8.181437e-01
6.600000e-01,9.577567e-01
6.625000e-01,9.924407e-01
6.650000e-01,9.412918e-01
6.675000e-01,7.838584e-01
6.700000e-01,5.621200e-01
6.725000e-01,2.741630e-01
6.750000e-01,-2.714920e-02
6.775000e-01,-3.426540e-01
6.800000e-01,-6.120330e-01
6.825000e-01,-8.291070e-01
6.850000e-01,-9.554445e-01
6.875000e-01,-1.004042e+00
6.900000e-01,-9.448399e-01
6.925000e-01,-7.889613e-01
6.950000e-01,-5.678209e-01
6.975000e-01,-2.784288e-01
7.000000e-01,2.814586e-02
7.025000e-01,3.393052e-01
7.050000e-01,6.128702e-01
7.075000e-01,8.278313e-01
7.100000e-01,9.504611e-01
7.125000e-01,9.945935e-01
7.150000e-01,9.413317e-01
7.175000e-01,7.889214e-01
7.200000e-01,5.559805e-01
7.225000e-01,2.828540e-01
7.250000e-01,-3.360760e-02
7.275000e-01,-3.422154e-01
7.300000e-01,-6.178934e-01
7.325000e-01,-8.324558e-01
7.350000e-01,-9.651321e-01
7.375000e-01,-9.991383e-01
7.400000e-01,-9.471123e-01
7.425000e-01,-7.874064e-01
7.450000e-01,-5.605652e-01
7.475000e-01,-2.755584e-01
7.500000e-01,3.145480e-02
7.525000e-01,3.379497e-01
7.550000e-01,6.099600e-01
7.575000e-01,8.268745e-01
7.600000e-01,9.520159e-01
7.625000e-01,1.000215e+00
7.650000e-01,9.324414e-01
7.675000e-01,7.855726e-01
7.700000e-01,5.640734e-01
7.725000e-01,2.796646e-01
7.750000e-01,-2.667080e-02
7.775000e-01,-3.415377e-01
7.800000e-01,-6.162190e-01
7.825000e-01,-8.322166e-01
7.850000e-01,-9.569992e-01
7.875000e-01,-1.004441e+00
7.900000e-01,-9.489462e-01
7.925000e-01,-7.920310e-01
7.950000e-01,-5.700534e-01
7.975000e-01,-2.860433e-01
8.000000e-01,2.499640e-02
8.025000e-01,3.287405e-01
8.050000e-01,6.103985e-01
8.075000e-01,8.254791e-01
8.100000e-01,9.532518e-01
8.125000e-01,1.003125e+00
8.150000e-01,9.383018e-01
8.175000e-01,7.846158e-01
8.200000e-01,5.579339e-01
8.225000e-01,2.821763e-01
8.250000e-01,-3.532187e-02
8.275000e-01,-3.423350e-01
8.300000e-01,-6.176542e-01
8.325000e-01,-8.306220e-01
8.350000e-01,-9.603879e-01
8.375000e-01,-9.937165e-01
8.400000e-01,-9.477103e-01
8.425000e-01,-7.941439e-01
8.450000e-01,-5.673026e-01
8.475000e-01,-2.783092e-01
8.500000e-01,3.348800e-02
8.525000e-01,3.336441e-01
8.550000e-01,6.044185e-01
8.575000e-01,8.266352e-01
8.600000e-01,9.616238e-01
8.625000e-01,9.972646e-01
8.650000e-01,9.438034e-01
8.675000e-01,7.862504e-01
8.700000e-01,5.631964e-01
8.725000e-01,2.759570e-01
8.750000e-01,-3.069733e-02
8.775000e-01,-3.443682e-01
8.800000e-01,-6.170961e-01
8.825000e-01,-8.207350e-01
8.850000e-01,-9.642949e-01
8.875000e-01,-1.002447e+00
8.900000e-01,-9.360693e-01
8.925000e-01,-7.886822e-01
8.950000e-01,-5.679006e-01
8.975000e-01,-2.759969e-01
9.000000e-01,2.308280e-02
9.025000e-01,3.302554e-01
9.050000e-01,6.121128e-01
9.075000e-01,8.169078e-01
9.100000e-01,9.533714e-01
9.125000e-01,9.980619e-01
9.150000e-01,9.316441e-01
9.175000e-01,7.831407e-01
9.200000e-01,5.553825e-01
9.225000e-01,2.840500e-01
9.250000e-01,-3.105613e-02
9.275000e-01,-3.452453e-01
9.300000e-01,-6.174549e-01
9.325000e-01,-8.291070e-01
9.350000e-01,-9.570790e-01
9.375000e-01,-1.002886e+00
9.400000e-01,-9.374247e-01
9.425000e-01,-7.968150e-01
9.450000e-01,-5.693358e-01
9.475000e-01,-2.775916e-01
9.500000e-01,2.395986e-02
9.525000e-01,3.385078e-01
9.550000e-01,6.139067e-01
9.575000e-01,8.175457e-01
9.600000e-01,9.603481e-01
9.625000e-01,9.920421e-01
9.650000e-01,9.339164e-01
9.675000e-01,7.806690e-01
9.700000e-01,5.549440e-01
9.725000e-01,2.718906e-01
9.750000e-01,-2.523560e-02
9.775000e-01,-3.353584e-01
9.800000e-01,-6.179333e-01
9.825000e-01,-8.280306e-01
9.850000e-01,-9.575574e-01
9.875000e-01,-1.001171e+00
9.900000e-01,-9.381025e-01
9.925000e-01,-7.961373e-01
9.950000e-01,-5.673823e-01
9.975000e-01,-2.845683e-01
1.000000e+00,2.563426e-02
1.002500e+00,3.381092e-01
1.005000e+00,6.057341e-01
1.007500e+00,8.251203e-01
1.010000e+00,9.647334e-01
1.012500e+00,9.920022e-01
1.015000e+00,9.405742e-01
1.017500e+00,7.850942e-01
1.020000e+00,5.616017e-01
1.022500e+00,2.804221e-01
1.025000e+00,-2.623226e-02
1.027500e+00,-3.412188e-01
1.030000e+00,-6.121128e-01
1.032500e+00,-8.306618e-01
1.035000e+00,-9.555641e-01
1.037500e+00,-9.945935e-01
1.040000e+00,-9.433649e-01
1.042500e+00,-7.952602e-01
1.045000e+00,-5.645518e-01
1.047500e+00,-2.822161e-01
1.050000e+00,2.938173e-02
1.052500e+00,3.413782e-01
1.055000e+00,6.062524e-01
1.057500e+00,8.169875e-01
1.060000e+00,9.520558e-01
1.062500e+00,1.000015e+00
1.065000e+00,9.421290e-01
1.067500e+00,7.831407e-01
1.070000e+00,5.651498e-01
1.072500e+00,2.801032e-01
1.075000e+00,-2.706946e-02
1.077500e+00,-3.414580e-01
1.080000e+00,-6.193286e-01
1.082500e+00,-8.320970e-01
1.085000e+00,-9.571986e-01
1.087500e+00,-9.959490e-01
1.090000e+00,-9.473116e-01
1.092500e+00,-7.841772e-01
1.095000e+00,-5.663458e-01
1.097500e+00,-2.777511e-01
1.100000e+00,2.894320e-02
1.102500e+00,3.372321e-01
1.105000e+00,6.136277e-01
1.107500e+00,8.208147e-01
1.110000e+00,9.591122e-01
1.112500e+00,9.898095e-01
1.115000e+00,9.326806e-01
1.117500e+00,7.850145e-01
1.120000e+00,5.627977e-01
1.122500e+00,2.732461e-01
1.125000e+00,-2.934186e-02
1.127500e+00,-3.426540e-01
1.130000e+00,-6.182123e-01
1.132500e+00,-8.330538e-01
1.135000e+00,-9.552053e-01
1.137500e+00,-1.006872e+00
1.140000e+00,-9.463947e-01
1.142500e+00,-7.905958e-01
1.145000e+00,-5.675817e-01
1.147500e+00,-2.813789e-01
1.150000e+00,2.687013e-02
1.152500e+00,3.379098e-01
1.155000e+00,6.142257e-01
1.157500e+00,8.248811e-01
1.160000e+00,9.530525e-01
1.162500e+00,9.999356e-01
1.165000e+00,9.387802e-01
1.167500e+00,7.882835e-01
1.170000e+00,5.631964e-01
1.172500e+00,2.757976e-01
1.175000e+00,-3.871053e-02
1.177500e+00,-3.416573e-01
1.180000e+00,-6.145845e-01
1.182500e+00,-8.249609e-01
1.185000e+00,-9.569594e-01
1.187500e+00,-1.001570e+00
1.190000e+00,-9.368666e-01
1.192500e+00,-7.900377e-01
1.195000e+00,-5.643525e-01
1.197500e+00,-2.758375e-01
1.200000e+00,3.113586e-02
1.202500e+00,3.381490e-01
1.205000e+00,6.074483e-01
1.207500e+00,8.195390e-01
1.210000e+00,9.597899e-01
1.212500e+00,9.975436e-01
1.215000e+00,9.412918e-01
1.217500e+00,7.938250e-01
1.220000e+00,5.633957e-01
1.222500e+00,2.825350e-01
1.225000e+00,-2.802626e-02
1.227500e+00,-3.348002e-01
1.230000e+00,-6.080862e-01
1.232500e+00,-8.234858e-01
1.235000e+00,-9.654510e-01
1.237500e+00,-1.003085e+00
1.240000e+00,-9.410924e-01
1.242500e+00,-7.909945e-01
1.245000e+00,-5.656282e-01
1.247500e+00,-2.780700e-01
1.250000e+00,3.193320e-02
1.252500e+00,3.317704e-01
1.255000e+00,6.066111e-01
1.257500e+00,8.183430e-01
1.260000e+00,9.534113e-01
1.262500e+00,9.890521e-01
1.265000e+00,9.349928e-01
1.267500e+00,7.846557e-01
1.270000e+00,5.664654e-01
1.272500e+00,2.738042e-01
1.275000e+00,-3.723546e-02
1.277500e+00,-3.348800e-01
1.280000e+00,-6.074882e-01
1.282500e+00,-8.239244e-01
1.285000e+00,-9.616637e-01
1.287500e+00,-1.002766e+00
1.290000e+00,-9.465941e-01
1.292500e+00,-7.876457e-01
1.295000e+00,-5.573758e-01
1.297500e+00,-2.801431e-01
1.300000e+00,2.392000e-02
1.302500e+00,3.379098e-01
1.305000e+00,6.113154e-01
1.307500e+00,8.240838e-01
1.310000e+00,9.591919e-01
1.312500e+00,9.990985e-01
1.315000e+00,9.352320e-01
1.317500e+00,7.842570e-01
1.320000e+00,5.595286e-01
1.322500e+00,2.747611e-01
1.325000e+00,-2.858440e-02
1.327500e+00,-3.335245e-01
1.330000e+00,-6.083653e-01
1.332500e+00,-8.273928e-01
1.335000e+00,-9.652118e-01
1.337500e+00,-9.933178e-01
1.340000e+00,-9.440027e-01
1.342500e+00,-7.896390e-01
1.345000e+00,-5.698142e-01
1.347500e+00,-2.844088e-01
1.350000e+00,2.312266e-02
1.352500e+00,3.383085e-01
1.355000e+00,6.049368e-01
1.357500e+00,8.185822e-01
1.360000e+00,9.534910e-01
1.362500e+00,9.926799e-01
1.365000e+00,9.410924e-01
1.367500e+00,7.912337e-01
1.370000e+00,5.659870e-01
1.372500e+00,2.702163e-01
1.375000e+00,-3.548133e-02
1.377500e+00,-3.333651e-01
1.380000e+00,-6.101593e-01
1.382500e+00,-8.313395e-01
1.385000e+00,-9.554445e-01
1.387500e+00,-1.003085e+00
1.390000e+00,-9.345942e-01
1.392500e+00,-7.970144e-01
1.395000e+00,-5.627180e-01
1.397500e+00,-2.766348e-01
1.400000e+00,2.579373e-02
1.402500e+00,3.393450e-01
1.405000e+00,6.071693e-01
1.407500e+00,8.274724e-01
1.410000e+00,9.536106e-01
1.412500e+00,9.940752e-01
1.415000e+00,9.435642e-01
1.417500e+00,7.843367e-01
1.420000e+00,5.642329e-01
1.422500e+00,2.730468e-01
1.425000e+00,-3.133520e-02
1.427500e+00,-3.428932e-01
1.430000e+00,-6.075680e-01
1.432500e+00,-8.341302e-01
1.435000e+00,-9.645340e-01
1.437500e+00,-9.968659e-01
1.440000e+00,-9.452785e-01
1.442500e+00,-7.954595e-01
1.445000e+00,-5.593691e-01
1.447500e+00,-2.740833e-01
1.450000e+00,3.229200e-02
1.452500e+00,3.312920e-01
1.455000e+00,6.025846e-01
1.457500e+00,8.219709e-01
1.460000e+00,9.518166e-01
1.462500e+00,9.918029e-01
1.465000e+00,9.339563e-01
1.467500e+00,7.850145e-01
1.470000e+00,5.576549e-01
1.472500e+00,2.841696e-01
1.475000e+00,-3.823213e-02
1.477500e+00,-3.375112e-01
1.480000e+00,-6.121526e-01
1.482500e+00,-8.229277e-01
1.485000e+00,-9.566405e-01
1.487500e+00,-1.000932e+00
1.490000e+00,-9.471522e-01
1.492500e+00,-7.978914e-01
1.495000e+00,-5.602861e-01
1.497500e+00,-2.839304e-01
1.500000e+00,3.384680e-02
1.502500e+00,3.330860e-01
1.505000e+00,6.062125e-01
1.507500e+00,8.267150e-01
1.510000e+00,9.589926e-01
1.512500e+00,9.984207e-01
1.515000e+00,9.357902e-01
1.517500e+00,7.829414e-01
1.520000e+00,5.702129e-01
1.522500e+00,2.819769e-01
1.525000e+00,-2.758773e-02
1.527500e+00,-3.433716e-01
1.530000e+00,-6.173751e-01
1.532500e+00,-8.242831e-01
1.535000e+00,-9.676835e-01
1.537500e+00,-9.978227e-01
1.540000e+00,-9.495841e-01
1.542500e+00,-7.944230e-01
1.545000e+00,-5.618010e-01
1.547500e+00,-2.782693e-01
1.550000e+00,3.105613e-02
1.552500e+00,3.382288e-01
1.555000e+00,6.077673e-01
1.557500e+00,8.183430e-01
1.560000e+00,9.597501e-01
1.562500e+00,9.973842e-01
1.565000e+00,9.414911e-01
1.567500e+00,7.852138e-01
1.570000e+00,5.627180e-01
1.572500e+00,2.793457e-01
1.575000e+00,-2.782693e-02
1.577500e+00,-3.333252e-01
1.580000e+00,-6.058537e-01
1.582500e+00,-8.231270e-01
1.585000e+00,-9.557235e-01
1.587500e+00,-1.002726e+00
1.590000e+00,-9.455177e-01
1.592500e+00,-7.975725e-01
1.595000e+00,-5.671431e-01
1.597500e+00,-2.870400e-01
1.600000e+00,3.464413e-02
1.602500e+00,3.388667e-01
1.605000e+00,6.143851e-01
1.607500e+00,8.163098e-01
1.610000e+00,9.579162e-01
1.612500e+00,1.000454e+00
1.615000e+00,9.356307e-01
1.617500e+00,7.881241e-01
1.620000e+00,5.594489e-01
1.622500e+00,2.731664e-01
1.625000e+00,-2.938173e-02
1.627500e+00,-3.422154e-01
1.630000e+00,-6.185712e-01
1.632500e+00,-8.316585e-01
1.635000e+00,-9.585142e-01
1.637500e+00,-1.005437e+00
1.640000e+00,-9.400958e-01
1.642500e+00,-7.897187e-01
1.645000e+00,-5.546649e-01
1.647500e+00,-2.782294e-01
1.650000e+00,2.559440e-02
1.652500e+00,3.328866e-01
1.655000e+00,6.121925e-01
1.657500e+00,8.250406e-01
1.660000e+00,9.602284e-01
1.662500e+00,9.898494e-01
1.665000e+00,9.338766e-01
1.667500e+00,7.942635e-01
1.670000e+00,5.602861e-01
1.672500e+00,2.701365e-01
1.675000e+00,-2.507613e-02
1.677500e+00,-3.358766e-01
1.680000e+00,-6.080065e-01
1.682500e+00,-8.282698e-01
1.685000e+00,-9.606670e-01
1.687500e+00,-1.003524e+00
1.690000e+00,-9.507800e-01
1.692500e+00,-7.917519e-01
1.695000e+00,-5.733624e-01
1.697500e+00,-2.769537e-01
1.700000e+00,3.193320e-02
1.702500e+00,3.300561e-01
1.705000e+00,6.088836e-01
1.707500e+00,8.185822e-01
1.710000e+00,9.599892e-01
1.712500e+00,9.981018e-01
1.715000e+00,9.363084e-01
1.717500e+00,7.933067e-01
1.720000e+00,5.655485e-01
1.722500e+00,2.745219e-01
1.725000e+00,-2.862426e-02
1.727500e+00,-3.370328e-01
1.730000e+00,-6.099600e-01
1.732500e+00,-8.245622e-01
1.735000e+00,-9.573581e-01
1.737500e+00,-9.939955e-01
1.740000e+00,-9.434845e-01
1.742500e+00,-7.968947e-01
1.745000e+00,-5.606847e-01
1.747500e+00,-2.864420e-01
1.750000e+00,2.439840e-02
1.752500e+00,3.320494e-01
1.755000e+00,6.030630e-01
1.757500e+00,8.261170e-01
1.760000e+00,9.525741e-01
1.762500e+00,1.001570e+00
1.765000e+00,9.338766e-01
1.767500e+00,7.834995e-01
1.770000e+00,5.627180e-01
1.772500e+00,2.835317e-01
1.775000e+00,-2.726880e-02
1.777500e+00,-3.420560e-01
1.780000e+00,-6.076477e-01
1.782500e+00,-8.330936e-01
1.785000e+00,-9.529328e-01
1.787500e+00,-1.003045e+00
1.790000e+00,-9.460758e-01
1.792500e+00,-7.986489e-01
1.795000e+00,-5.684189e-01
1.797500e+00,-2.795052e-01
1.800000e+00,3.289000e-02
1.802500e+00,3.324082e-01
1.805000e+00,6.052158e-01
1.807500e+00,8.266751e-01
1.810000e+00,9.580756e-01
1.812500e+00,9.999755e-01
1.815000e+00,9.348733e-01
1.817500e+00,7.840577e-01
1.820000e+00,5.563791e-01
1.822500e+00,2.763557e-01
1.825000e+00,-3.639827e-02
1.827500e+00,-3.422154e-01
1.830000e+00,-6.083254e-01
1.832500e+00,-8.247217e-01
1.835000e+00,-9.573182e-01
1.837500e+00,-9.941151e-01
1.840000e+00,-9.503016e-01
1.842500e+00,-7.957785e-01
1.845000e+00,-5.617611e-01
1.847500e+00,-2.847676e-01
1.850000e+00,2.284360e-02
1.852500e+00,3.395842e-01
1.855000e+00,6.132689e-01
1.857500e+00,8.201370e-01
1.860000e+00,9.518564e-01
1.862500e+00,1.000813e+00
1.865000e+00,9.412918e-01
1.867500e+00,7.831806e-01
1.870000e+00,5.572562e-01
1.872500e+00,2.761165e-01
1.875000e+00,-3.564080e-02
1.877500e+00,-3.418965e-01
1.880000e+00,-6.072490e-01
1.882500e+00,-8.335322e-01
